# Description:
#   Normalized structure factor for block copolymer solution
#
# Source:
#   Lyubimov, I.; Jeltran-Villegas, D.J.; Jayaraman, A; PRISM Theory Study of
#   Amphiphilic Block Copolymer Solutions with Varying Copolymer Sequence and
#   Composition, Macromolecules, 2017, 50 (18), pp7419,
#   doi:10.1021/acs.macromol.7b01419
# 
# Figure 5
# Sk-pair: B-B
# Chain Length: 24
# Sequence: A*6 + B*12 + A*6
# 
# k          S(k)
#
0.030679616  2.0055376
0.061359232  2.0307621
0.092038847  2.0717653
0.12271846   2.1302745
0.15339808   2.2047716
0.18407769   2.2952332
0.21475731   2.4010368
0.24543693   2.5231763
0.27611654   2.6591368
0.30679616   2.8091646
0.33747577   2.9713978
0.36815539   3.1439617
0.398835     3.3244107
0.42951462   3.5099702
0.46019424   3.6974027
0.49087385   3.8827464
0.52155347   4.0620346
0.55223308   4.2309142
0.5829127    4.3851612
0.61359232   4.520802
0.64427193   4.6342201
0.67495155   4.7227021
0.70563116   4.784309
0.73631078   4.8180494
0.76699039   4.8241341
0.79767001   4.803507
0.82834963   4.7580322
0.85902924   4.690171
0.88970886   4.6028116
0.92038847   4.4991582
0.95106809   4.3823973
0.9817477    4.2555836
1.0124273    4.1216707
1.0431069    3.9832072
1.0737866    3.8424593
1.1044662    3.7014051
1.1351458    3.5616042
1.1658254    3.424315
1.196505     3.2905566
1.2271846    3.1610337
1.2578642    3.0363397
1.2885439    2.9167776
1.3192235    2.8025621
1.3499031    2.6937477
1.3805827    2.5903505
1.4112623    2.4922642
1.4419419    2.3993764
1.4726216    2.3114764
1.5033012    2.2283642
1.5339808    2.1498225
1.5646604    2.0756007
1.59534      2.0054665
1.6260196    1.939187
1.6566993    1.876516
1.6873789    1.8172484
1.7180585    1.7611487
1.7487381    1.708033
1.7794177    1.657687
1.8100973    1.6099518
1.8407769    1.5646381
1.8714566    1.5216055
1.9021362    1.4807064
1.9328158    1.4418032
1.9634954    1.4047834
1.994175     1.3695122
2.0248546    1.3359037
2.0555343    1.3038492
2.0862139    1.2732575
2.1168935    1.2440539
2.1475731    1.2161575
2.1782527    1.1894874
2.2089323    1.1639965
2.239612     1.1396054
2.2702916    1.1162685
2.3009712    1.0939241
2.3316508    1.0725275
2.3623304    1.0520266
2.39301      1.0323777
2.4236896    1.0135461
2.4543693    0.99548888
2.4850489    0.97818064
2.5157285    0.96157056
2.5464081    0.94563364
2.5770877    0.93034506
2.6077673    0.91567843
2.638447     0.90160067
2.6691266    0.88808883
2.6998062    0.87512112
2.7304858    0.86267472
2.7611654    0.8507285
2.791845     0.83926397
2.8225246    0.82825988
2.8532043    0.81770107
2.8838839    0.80756877
2.9145635    0.79784582
2.9452431    0.78851676
2.9759227    0.77956793
3.0066023    0.77098272
3.037282     0.76274817
3.0679616    0.75485026
3.0986412    0.74727402
3.1293208    0.74000984
3.1600004    0.73304264
3.19068      0.72636177
3.2213597    0.71995754
3.2520393    0.71381551
3.2827189    0.70792773
3.3133985    0.70228338
3.3440781    0.69687254
3.3747577    0.69168709
3.4054373    0.68671884
3.436117     0.68195957
3.4667966    0.67740289
3.4974762    0.67304328
3.5281558    0.66887423
3.5588354    0.6648939
3.589515     0.66108906
3.6201947    0.65746629
3.6508743    0.65401793
3.6815539    0.65074387
3.7122335    0.64764016
3.7429131    0.64470854
3.7735927    0.64194595
3.8042724    0.63935409
3.834952     0.63693466
3.8656316    0.63468357
3.8963112    0.6326102
3.9269908    0.63071336
3.9576704    0.62899376
3.98835      0.62745406
4.0190297    0.62609887
4.0497093    0.62493281
4.0803889    0.6239498
4.1110685    0.62316421
4.1417481    0.62257582
4.1724277    0.62218342
4.2031074    0.62199457
4.233787     0.62200902
4.2644666    0.62223044
4.2951462    0.62266542
4.3258258    0.62331169
4.3565054    0.62416892
4.3871851    0.62524467
4.4178647    0.62653957
4.4485443    0.62804528
4.4792239    0.62976734
4.5099035    0.6317162
4.5405831    0.63386955
4.5712627    0.63624377
4.6019424    0.63882939
4.632622     0.64162384
4.6633016    0.64462554
4.6939812    0.64783688
4.7246608    0.65124522
4.7553404    0.6548569
4.7860201    0.65866023
4.8166997    0.66265647
4.8473793    0.6668399
4.8780589    0.67120671
4.9087385    0.67575413
4.9394181    0.68047731
4.9700978    0.68537241
5.0007774    0.69043755
5.031457     0.69566785
5.0621366    0.70106137
5.0928162    0.70661519
5.1234958    0.71232533
5.1541754    0.71819082
5.1848551    0.72420968
5.2155347    0.73037783
5.2462143    0.73669426
5.2768939    0.74315687
5.3075735    0.74976356
5.3382531    0.75651526
5.3689328    0.76340776
5.3996124    0.77043888
5.430292     0.77760844
5.4609716    0.78491417
5.4916512    0.79235586
5.5223308    0.79993015
5.5530105    0.80763267
5.5836901    0.81546616
5.6143697    0.82342516
5.6450493    0.83150928
5.6757289    0.839713
5.7064085    0.8480359
5.7370881    0.85647446
5.7677678    0.8650241
5.7984474    0.87367922
5.829127     0.88243932
5.8598066    0.89129774
5.8904862    0.90024778
5.9211658    0.90928586
5.9518455    0.91840422
5.9825251    0.9275972
6.0132047    0.93685911
6.0438843    0.94617912
6.0745639    0.95555153
6.1052435    0.96496654
6.1359232    0.97441639
6.1666028    0.98389025
6.1972824    0.99338039
6.227962     1.0028749
6.2586416    1.0123631
6.2893212    1.021831
6.3200008    1.0312823
6.3506805    1.0406846
6.3813601    1.0500375
6.4120397    1.0593406
6.4427193    1.0685524
6.4733989    1.0776931
6.5040785    1.0867316
6.5347582    1.0956574
6.5654378    1.10446
6.5961174    1.1131392
6.626797     1.1216745
6.6574766    1.1300451
6.6881562    1.1382512
6.7188359    1.1462826
6.7495155    1.1541292
6.7801951    1.1617707
6.8108747    1.1692076
6.8415543    1.1764299
6.8722339    1.1834178
6.9029135    1.1901719
6.9335932    1.1966827
6.9642728    1.2029409
6.9949524    1.2089371
7.025632     1.2146621
7.0563116    1.2201172
7.0869912    1.2252933
7.1176709    1.2301816
7.1483505    1.234773
7.1790301    1.2390794
7.2097097    1.2430816
7.2403893    1.2467813
7.2710689    1.2501697
7.3017486    1.2532383
7.3324282    1.2559986
7.3631078    1.2584421
7.3937874    1.2605703
7.424467     1.2623745
7.4551466    1.2638563
7.4858262    1.265007
7.5165059    1.2658482
7.5471855    1.2663611
7.5778651    1.2665572
7.6085447    1.2664379
7.6392243    1.2659943
7.6699039    1.2652579
7.7005836    1.2641997
7.7312632    1.262851
7.7619428    1.2612029
7.7926224    1.2592665
7.823302     1.2570429
7.8539816    1.2545528
7.8846612    1.2517873
7.9153409    1.2487771
7.9460205    1.245513
7.9767001    1.2420056
8.0073797    1.2382754
8.0380593    1.2343329
8.0687389    1.2301687
8.0994186    1.2258129
8.1300982    1.2212658
8.1607778    1.2165375
8.1914574    1.2116482
8.222137     1.2065879
8.2528166    1.2013864
8.2834963    1.1960438
8.3141759    1.1905698
8.3448555    1.1849644
8.3755351    1.179257
8.4062147    1.1734377
8.4368943    1.1675258
8.4675739    1.1615212
8.4982536    1.1554433
8.5289332    1.1492918
8.5596128    1.1430762
8.5902924    1.136806
8.620972     1.1304809
8.6516516    1.1241201
8.6823313    1.1177134
8.7130109    1.1112899
8.7436905    1.1048393
8.7743701    1.0983711
8.8050497    1.0919045
8.8357293    1.0854291
8.866409     1.0789543
8.8970886    1.0724897
8.9277682    1.0660346
8.9584478    1.0596083
8.9891274    1.0532006
9.019807     1.0468208
9.0504866    1.0404783
9.0811663    1.0341728
9.1118459    1.0279037
9.1425255    1.0216904
9.1732051    1.0155226
9.2038847    1.0094098
9.2345643    1.0033516
9.265244     0.99735757
9.2959236    0.99143121
9.3266032    0.9855742
9.3572828    0.97979018
9.3879624    0.97408377
9.418642     0.96845964
9.4493217    0.96292047
9.4800013    0.95747196
9.5106809    0.95211583
9.5413605    0.94685782
9.5720401    0.94170068
9.6027197    0.93665114
9.6333993    0.93170904
9.664079     0.92688113
9.6947586    0.92217025
9.7254382    0.91758021
9.7561178    0.91311287
9.7867974    0.90877307
9.817477     0.90456267
9.8481567    0.90048456
9.8788363    0.89653864
9.9095159    0.89272978
9.9401955    0.88905693
9.9708751    0.88552001
10.001555    0.88212392
10.032234    0.87886563
10.062914    0.87574509
10.093594    0.87276126
10.124273    0.8699151
10.154953    0.86720658
10.185632    0.86463169
10.216312    0.86219141
10.246992    0.85988371
10.277671    0.85770761
10.308351    0.85566009
10.339031    0.85374214
10.36971     0.85195078
10.40039     0.85028599
10.431069    0.8487468
10.461749    0.84733219
10.492429    0.84604119
10.523108    0.84487379
10.553788    0.84382902
10.584467    0.84290688
10.615147    0.84210838
10.645827    0.84143255
10.676506    0.84088038
10.707186    0.8404519
10.737866    0.84014612
10.768545    0.83996406
10.799225    0.83990674
10.829904    0.83997416
10.860584    0.84016634
10.891264    0.84048229
10.921943    0.84092404
10.952623    0.84149059
10.983302    0.84218094
11.013982    0.84299512
11.044662    0.84393313
11.075341    0.84499297
11.106021    0.84617466
11.136701    0.84747718
11.16738     0.84889854
11.19806     0.85043874
11.228739    0.85209476
11.259419    0.8538656
11.290099    0.85575024
11.320778    0.85774568
11.351458    0.85984987
11.382137    0.86206282
11.412817    0.86438048
11.443497    0.86679881
11.474176    0.86931981
11.504856    0.87193841
11.535536    0.87465257
11.566215    0.87746026
11.596895    0.88035943
11.627574    0.883347
11.658254    0.88641994
11.688934    0.88957718
11.719613    0.89281667
11.750293    0.89613232
11.780972    0.89952508
11.811652    0.90299088
11.842332    0.90652965
11.873011    0.91013531
11.903691    0.91380779
11.934371    0.91754402
11.96505     0.92133992
11.99573     0.92519541
12.026409    0.92910542
12.057089    0.93306888
12.087769    0.93708169
12.118448    0.94114179
12.149128    0.94524711
12.179807    0.94939355
12.210487    0.95357906
12.241167    0.95779953
12.271846    0.96205289
12.302526    0.96633507
12.333206    0.97064498
12.363885    0.97497755
12.394565    0.97932968
12.425244    0.98369829
12.455924    0.98808132
12.486604    0.99247367
12.517283    0.99687227
12.547963    1.001273
12.578642    1.0056699
12.609322    1.0100738
12.640002    1.0144536
12.670681    1.0188294
12.701361    1.0231911
12.732041    1.0275285
12.76272     1.0318417
12.7934      1.0361206
12.824079    1.0403652
12.854759    1.0445756
12.885439    1.0487416
12.916118    1.0528634
12.946798    1.0569207
12.977477    1.0609339
13.008157    1.0648828
13.038837    1.0687574
13.069516    1.0725679
13.100196    1.0762942
13.130876    1.0799465
13.161555    1.0835149
13.192235    1.0869893
13.222914    1.0903699
13.253594    1.0936569
13.284274    1.0968404
13.314953    1.0999103
13.345633    1.102877
13.376312    1.1057306
13.406992    1.1084712
13.437672    1.1110789
13.468351    1.1135741
13.499031    1.1159368
13.529711    1.1181672
13.56039     1.1202655
13.59107     1.122232
13.621749    1.1240567
13.652429    1.1257401
13.683109    1.1272722
13.713788    1.1286733
13.744468    1.1299236
13.775147    1.1310233
13.805827    1.1319727
13.836507    1.132772
13.867186    1.1334214
13.897866    1.1339211
13.928546    1.1342715
13.959225    1.1344626
13.989905    1.1345148
14.020584    1.1344082
14.051264    1.1341531
14.081944    1.1337496
14.112623    1.133198
14.143303    1.1325085
14.173982    1.1316712
14.204662    1.1306963
14.235342    1.1295839
14.266021    1.1283443
14.296701    1.1269576
14.327381    1.1254539
14.35806     1.1238133
14.38874     1.122056
14.419419    1.120182
14.450099    1.1182015
14.480779    1.1160945
14.511458    1.1138912
14.542138    1.1115815
14.572817    1.1091756
14.603497    1.1066835
14.634177    1.1040952
14.664856    1.1014208
14.695536    1.0986703
14.726216    1.0958437
14.756895    1.092941
14.787575    1.0899821
14.818254    1.0869571
14.848934    1.083866
14.879614    1.0807287
14.910293    1.0775451
14.940973    1.0743152
14.971652    1.071039
15.002332    1.0677265
15.033012    1.0643874
15.063691    1.0610117
15.094371    1.0576095
15.125051    1.0541806
15.15573     1.0507349
15.18641     1.0472723
15.217089    1.0437928
15.247769    1.0403063
15.278449    1.0368126
15.309128    1.0333118
15.339808    1.0298136
15.370487    1.026318
15.401167    1.022825
15.431847    1.0193445
15.462526    1.0158663
15.493206    1.0124103
15.523886    1.0089665
15.554565    1.0055449
15.585245    1.0021452
15.615924    0.99876746
15.646604    0.99542153
15.677284    0.99210435
15.707963    0.98881982
15.738643    0.98557186
15.769322    0.98236139
15.800002    0.97919131
15.830682    0.97606455
15.861361    0.97298103
15.892041    0.96994466
15.922721    0.96695737
15.9534      0.96402009
15.98408     0.96113474
16.014759    0.95830227
16.045439    0.95552558
16.076119    0.95280563
16.106798    0.95014336
16.137478    0.94754069
16.168158    0.94499859
16.198837    0.94251799
16.229517    0.94010183
16.260196    0.93774908
16.290876    0.93546268
16.321556    0.93324258
16.352235    0.93109075
16.382915    0.92900914
16.413594    0.92699771
16.444274    0.92505742
16.474954    0.92319024
16.505633    0.92139612
16.536313    0.91967804
16.566993    0.91803696
16.597672    0.91647185
16.628352    0.91498468
16.659031    0.91357742
16.689711    0.91224905
16.720391    0.91100155
16.75107     0.90983587
16.78175     0.90875102
16.812429    0.90774895
16.843109    0.90682965
16.873789    0.90599211
16.904468    0.90523829
16.935148    0.90456818
16.965828    0.90398177
16.996507    0.90347703
17.027187    0.90305796
17.057866    0.90272052
17.088546    0.90246572
17.119226    0.90229353
17.149905    0.90220594
17.180585    0.90219994
17.211264    0.90227652
17.241944    0.90243566
17.272624    0.90267734
17.303303    0.90300157
17.333983    0.90340732
17.364663    0.90389559
17.395342    0.90446536
17.426022    0.90511662
17.456701    0.90585035
17.487381    0.90666354
17.518061    0.90755818
17.54874     0.90853424
17.57942     0.90958872
17.610099    0.91072359
17.640779    0.91193684
17.671459    0.91322744
17.702138    0.91459537
17.732818    0.91603762
17.763498    0.91755415
17.794177    0.91914395
17.824857    0.92080499
17.855536    0.92253625
17.886216    0.92433471
17.916896    0.92619933
17.947575    0.92812809
17.978255    0.93011897
18.008934    0.93216793
18.039614    0.93427496
18.070294    0.93643702
18.100973    0.93865108
18.131653    0.94091512
18.162333    0.94322712
18.193012    0.94558302
18.223692    0.94798182
18.254371    0.95041948
18.285051    0.95289497
18.315731    0.95540525
18.34641     0.95794731
18.37709     0.9605191
18.407769    0.96311759
18.438449    0.96574176
18.469129    0.96838857
18.499808    0.971056
18.530488    0.97374
18.561168    0.97644056
18.591847    0.97915565
18.622527    0.98188122
18.653206    0.98461627
18.683886    0.98735876
18.714566    0.99010567
18.745245    0.99285597
18.775925    0.99560665
18.806604    0.99835568
18.837284    1.0011011
18.867964    1.0038387
18.898643    1.0065738
18.929323    1.009287
18.960003    1.0119986
18.990682    1.0146885
19.021362    1.0173566
19.052041    1.020003
19.082721    1.0226277
19.113401    1.0252307
19.14408     1.0278019
19.17476     1.0303414
19.205439    1.0328493
19.236119    1.0353154
19.266799    1.0377499
19.297478    1.0401427
19.328158    1.0424939
19.358838    1.0447935
19.389517    1.0470515
19.420197    1.0492579
19.450876    1.0514028
19.481556    1.0535063
19.512236    1.0555583
19.542915    1.0575388
19.573595    1.059468
19.604274    1.0613359
19.634954    1.0631425
19.665634    1.0648879
19.696313    1.0665621
19.726993    1.0681752
19.757673    1.0697172
19.788352    1.0711883
19.819032    1.0725884
19.849711    1.0739176
19.880391    1.0751761
19.911071    1.0763538
19.94175     1.0774609
19.97243     1.0784874
20.003109    1.0794334
20.033789    1.080299
20.064469    1.0810842
20.095148    1.0817891
20.125828    1.0824138
20.156508    1.0829584
20.187187    1.083413
20.217867    1.0837876
20.248546    1.0840723
20.279226    1.0842771
20.309906    1.0843923
20.340585    1.0844277
20.371265    1.0843736
20.401944    1.08424
20.432624    1.0840069
20.463304    1.0836945
20.493983    1.0833027
20.524663    1.0828217
20.555343    1.0822516
20.586022    1.0816023
20.616702    1.080874
20.647381    1.0800567
20.678061    1.0791704
20.708741    1.0781953
20.73942     1.0771414
20.7701      1.0760087
20.800779    1.0748073
20.831459    1.0735272
20.862139    1.0721885
20.892818    1.0707711
20.923498    1.0692852
20.954178    1.0677408
20.984857    1.0661279
21.015537    1.0644664
21.046216    1.0627365
21.076896    1.0609582
21.107576    1.0591314
21.138255    1.0572462
21.168935    1.0553225
21.199614    1.0533505
21.230294    1.05134
21.260974    1.0492912
21.291653    1.0472039
21.322333    1.0450781
21.353013    1.0429339
21.383692    1.0407513
21.414372    1.0385502
21.445051    1.0363306
21.475731    1.0340825
21.506411    1.0318258
21.53709     1.0295406
21.56777     1.0272569
21.598449    1.0249545
21.629129    1.0226536
21.659809    1.020344
21.690488    1.0180257
21.721168    1.0157088
21.751848    1.0134031
21.782527    1.0110887
21.813207    1.0087856
21.843886    1.0064836
21.874566    1.0042028
21.905246    1.0019232
21.935925    0.99965469
21.966605    0.99740426
21.997284    0.99516688
22.027964    0.99294752
22.058644    0.99074415
22.089323    0.98856173
22.120003    0.98639824
22.150683    0.98425662
22.181362    0.98213886
22.212042    0.98004392
22.242721    0.97797376
22.273401    0.97593135
22.304081    0.97391566
22.33476     0.97192865
22.36544     0.9699723
22.39612     0.96804856
22.426799    0.96615641
22.457479    0.96429982
22.488158    0.96247877
22.518838    0.9606962
22.549518    0.95895311
22.580197    0.95725146
22.610877    0.95559222
22.641556    0.95397836
22.672236    0.95241186
22.702916    0.9508947
22.733595    0.94942784
22.764275    0.94801326
22.794955    0.94665193
22.825634    0.94534784
22.856314    0.94410096
22.886993    0.94291328
22.917673    0.94178575
22.948353    0.94072038
22.979032    0.93971814
23.009712    0.93877901
23.040391    0.93790397
23.071071    0.93709401
23.101751    0.93635011
23.13243     0.93567226
23.16311     0.93506044
23.19379     0.93451363
23.224469    0.93403283
23.255149    0.93361801
23.285828    0.93326716
23.316508    0.93298128
23.347188    0.93275934
23.377867    0.93260032
23.408547    0.93250422
23.439226    0.93246903
23.469906    0.93249471
23.500586    0.93258127
23.531265    0.93272668
23.561945    0.93292993
23.592625    0.933192
23.623304    0.93350987
23.653984    0.93388354
23.684663    0.93431197
23.715343    0.93479416
23.746023    0.93533009
23.776702    0.93591875
23.807382    0.93655911
23.838061    0.93725016
23.868741    0.93799189
23.899421    0.93878327
23.9301      0.9396233
23.96078     0.94051195
23.99146     0.94144721
24.022139    0.94242906
24.052819    0.94345749
24.083498    0.94452948
24.114178    0.94564601
24.144858    0.94680707
24.175537    0.94800963
24.206217    0.94925369
24.236896    0.95053823
24.267576    0.95186323
24.298256    0.95322667
24.328935    0.95462754
24.359615    0.95606581
24.390295    0.95753948
24.420974    0.95904853
24.451654    0.96059093
24.482333    0.96216568
24.513013    0.96377275
24.543693    0.96540912
24.574372    0.96707479
24.605052    0.96876773
24.635731    0.97048893
24.666411    0.97223436
24.697091    0.97400402
24.72777     0.97579589
24.75845     0.97760994
24.78913     0.97944417
24.819809    0.98129656
24.850489    0.98316509
24.881168    0.98504976
24.911848    0.98694853
24.942528    0.98885841
24.973207    0.99077938
25.003887    0.99270742
25.034566    0.99464353
25.065246    0.99658269
25.095926    0.9985259
25.126605    1.0004681
25.157285    1.0024084
25.187965    1.0043467
25.218644    1.006274
25.249324    1.0082003
25.280003    1.0101156
25.310683    1.01202
25.341363    1.0139033
25.372042    1.0157756
25.402722    1.0176269
25.433401    1.0194572
25.464081    1.0212665
25.494761    1.0230448
25.52544     1.0248021
25.55612     1.0265384
25.5868      1.0282338
