# Description:
#    Intra-molecular correlation functions (form factors) for a copolymer in a
#    vaccuum with athermal, hard-sphere interactions for A-A and A-B and
#    attractive B-B interactions.These data were calculated from MD simulations
#    using the Debye method.
# 
# Source:
#   Coarse Grained MD Simulation
#
# Chain Length: 24
# Sequence: B*6 + A*12  + B*6
# bond types: harmonic
# bond_r0: 1.0
# bond_k: 50
# AA interactions: WCA
# sigma_AA = 1.0d
# epsilon_AA = 1.0e
# AB interactions: WCA
# sigma_AB = 1.0d
# epsilon_AB = 1.0e
# BB interactions: LJ
# sigma_BB = 1.0d
# epsilon_BB = 0.25e
# dr: 0.1 d
# dk: 0.031 d^-1
# length: 1024
# Omega Pair: B-B
# 
#k        Omega(k)
# 
0.0306796  11.96
0.0613592  11.8442
0.0920388  11.6538
0.122718   11.3969
0.153398   11.0786
0.184078   10.7084
0.214757   10.2961
0.245437   9.85372
0.276117   9.39071
0.306796   8.91885
0.337476   8.44786
0.368155   7.9868
0.398835   7.54357
0.429515   7.12454
0.460194   6.73462
0.490874   6.37706
0.521553   6.05356
0.552233   5.76457
0.582913   5.50924
0.613592   5.28557
0.644272   5.09096
0.674952   4.92214
0.705631   4.77559
0.736311   4.64773
0.76699    4.53495
0.79767    4.43383
0.82835    4.34142
0.859029   4.25504
0.889709   4.17256
0.920388   4.09223
0.951068   4.01268
0.981748   3.93294
1.01243    3.85245
1.04311    3.77088
1.07379    3.68812
1.10447    3.60425
1.13515    3.51945
1.16583    3.434
1.1965     3.34821
1.22718    3.26245
1.25786    3.17702
1.28854    3.09225
1.31922    3.00842
1.3499     2.92579
1.38058    2.84459
1.41126    2.76503
1.44194    2.68725
1.47262    2.61138
1.5033     2.53752
1.53398    2.46574
1.56466    2.39608
1.59534    2.32858
1.62602    2.26323
1.6567     2.20004
1.68738    2.13896
1.71806    2.07999
1.74874    2.02307
1.77942    1.96817
1.8101     1.91523
1.84078    1.8642
1.87146    1.81503
1.90214    1.76768
1.93282    1.72209
1.9635     1.67819
1.99417    1.63593
2.02485    1.59526
2.05553    1.55612
2.08621    1.51844
2.11689    1.48215
2.14757    1.4472
2.17825    1.41354
2.20893    1.3811
2.23961    1.34983
2.27029    1.31968
2.30097    1.29062
2.33165    1.2626
2.36233    1.23559
2.39301    1.20958
2.42369    1.18453
2.45437    1.16043
2.48505    1.13726
2.51573    1.11499
2.54641    1.09361
2.57709    1.0731
2.60777    1.05343
2.63845    1.03458
2.66913    1.01651
2.69981    0.999195
2.73049    0.9826
2.76117    0.966692
2.79185    0.951436
2.82252    0.936798
2.8532     0.922747
2.88388    0.909252
2.91456    0.896283
2.94524    0.883813
2.97592    0.871817
3.0066     0.860272
3.03728    0.849159
3.06796    0.838456
3.09864    0.828147
3.12932    0.818217
3.16       0.808651
3.19068    0.799435
3.22136    0.790564
3.25204    0.782025
3.28272    0.773811
3.3134     0.765917
3.34408    0.758335
3.37476    0.751063
3.40544    0.744094
3.43612    0.737426
3.4668     0.731055
3.49748    0.724976
3.52816    0.719188
3.55884    0.713682
3.58951    0.708458
3.62019    0.703507
3.65087    0.698827
3.68155    0.694416
3.71223    0.690264
3.74291    0.686376
3.77359    0.682743
3.80427    0.679366
3.83495    0.67624
3.86563    0.673364
3.89631    0.670735
3.92699    0.668352
3.95767    0.66621
3.98835    0.664303
4.01903    0.66263
4.04971    0.661188
4.08039    0.659965
4.11107    0.65896
4.14175    0.658164
4.17243    0.657575
4.20311    0.657182
4.23379    0.656984
4.26447    0.656974
4.29515    0.657149
4.32583    0.657512
4.35651    0.658053
4.38719    0.658777
4.41786    0.659684
4.44854    0.660767
4.47922    0.662033
4.5099     0.663485
4.54058    0.665113
4.57126    0.666925
4.60194    0.668919
4.63262    0.671091
4.6633     0.673444
4.69398    0.675972
4.72466    0.678675
4.75534    0.681548
4.78602    0.684589
4.8167     0.687798
4.84738    0.69117
4.87806    0.694706
4.90874    0.698408
4.93942    0.702268
4.9701     0.706293
5.00078    0.710484
5.03146    0.714838
5.06214    0.719356
5.09282    0.72404
5.1235     0.728884
5.15418    0.733891
5.18485    0.739056
5.21553    0.744374
5.24621    0.749841
5.27689    0.755455
5.30757    0.761208
5.33825    0.7671
5.36893    0.773128
5.39961    0.779291
5.43029    0.785588
5.46097    0.792023
5.49165    0.798598
5.52233    0.805316
5.55301    0.81218
5.58369    0.819192
5.61437    0.826353
5.64505    0.833665
5.67573    0.841122
5.70641    0.848721
5.73709    0.856453
5.76777    0.864311
5.79845    0.87228
5.82913    0.880349
5.85981    0.888505
5.89049    0.896731
5.92117    0.905016
5.95185    0.913346
5.98252    0.921709
6.0132     0.930095
6.04388    0.938494
6.07456    0.946898
6.10524    0.955301
6.13592    0.963695
6.1666     0.972077
6.19728    0.980441
6.22796    0.988783
6.25864    0.9971
6.28932    1.00539
6.32       1.01365
6.35068    1.02187
6.38136    1.03006
6.41204    1.03821
6.44272    1.04633
6.4734     1.0544
6.50408    1.06243
6.53476    1.0704
6.56544    1.07832
6.59612    1.08617
6.6268     1.09395
6.65748    1.10163
6.68816    1.10921
6.71884    1.11667
6.74952    1.12399
6.78019    1.13115
6.81087    1.13814
6.84155    1.14494
6.87223    1.15154
6.90291    1.15792
6.93359    1.16408
6.96427    1.17
6.99495    1.17569
7.02563    1.18114
7.05631    1.18634
7.08699    1.19131
7.11767    1.19603
7.14835    1.20051
7.17903    1.20474
7.20971    1.20873
7.24039    1.21247
7.27107    1.21596
7.30175    1.2192
7.33243    1.22217
7.36311    1.22488
7.39379    1.22731
7.42447    1.22948
7.45515    1.23138
7.48583    1.233
7.51651    1.23435
7.54719    1.23542
7.57787    1.23622
7.60854    1.23676
7.63922    1.23702
7.6699     1.23703
7.70058    1.23676
7.73126    1.23624
7.76194    1.23545
7.79262    1.23439
7.8233     1.23308
7.85398    1.2315
7.88466    1.22966
7.91534    1.22756
7.94602    1.22522
7.9767     1.22262
8.00738    1.21979
8.03806    1.21673
8.06874    1.21345
8.09942    1.20997
8.1301     1.20628
8.16078    1.20242
8.19146    1.19838
8.22214    1.19418
8.25282    1.18982
8.2835     1.18531
8.31418    1.18066
8.34486    1.17588
8.37554    1.17096
8.40621    1.16591
8.43689    1.16075
8.46757    1.15546
8.49825    1.15007
8.52893    1.14457
8.55961    1.13898
8.59029    1.13331
8.62097    1.12756
8.65165    1.12176
8.68233    1.11591
8.71301    1.11003
8.74369    1.10412
8.77437    1.09819
8.80505    1.09226
8.83573    1.08632
8.86641    1.0804
8.89709    1.07447
8.92777    1.06856
8.95845    1.06267
8.98913    1.05678
9.01981    1.05092
9.05049    1.04507
9.08117    1.03924
9.11185    1.03345
9.14253    1.02768
9.17321    1.02195
9.20388    1.01626
9.23456    1.01063
9.26524    1.00505
9.29592    0.999537
9.3266     0.994096
9.35728    0.988731
9.38796    0.983448
9.41864    0.978249
9.44932    0.973138
9.48       0.968116
9.51068    0.963185
9.54136    0.958345
9.57204    0.953598
9.60272    0.948943
9.6334     0.944382
9.66408    0.939916
9.69476    0.935546
9.72544    0.931274
9.75612    0.927101
9.7868     0.923031
9.81748    0.919066
9.84816    0.915207
9.87884    0.911457
9.90952    0.907819
9.9402     0.904293
9.97087    0.900881
10.0016    0.897585
10.0322    0.894405
10.0629    0.891342
10.0936    0.888397
10.1243    0.88557
10.155     0.882864
10.1856    0.880277
10.2163    0.877812
10.247     0.87547
10.2777    0.873252
10.3084    0.871159
10.339     0.869193
10.3697    0.867355
10.4004    0.865646
10.4311    0.864067
10.4617    0.862619
10.4924    0.8613
10.5231    0.860111
10.5538    0.859051
10.5845    0.858119
10.6151    0.857313
10.6458    0.85663
10.6765    0.856068
10.7072    0.855627
10.7379    0.855303
10.7685    0.855092
10.7992    0.854994
10.8299    0.855004
10.8606    0.855124
10.8913    0.855348
10.9219    0.855678
10.9526    0.856114
10.9833    0.856653
11.014     0.857296
11.0447    0.858045
11.0753    0.8589
11.106     0.859863
11.1367    0.860933
11.1674    0.862114
11.1981    0.863406
11.2287    0.864808
11.2594    0.866323
11.2901    0.867947
11.3208    0.869682
11.3515    0.871523
11.3821    0.873471
11.4128    0.875519
11.4435    0.877667
11.4742    0.879907
11.5049    0.882237
11.5355    0.884652
11.5662    0.887148
11.5969    0.889718
11.6276    0.892362
11.6583    0.895073
11.6889    0.897852
11.7196    0.900694
11.7503    0.903601
11.781     0.90657
11.8117    0.909603
11.8423    0.912701
11.873     0.915865
11.9037    0.919095
11.9344    0.922395
11.965     0.925766
11.9957    0.929206
12.0264    0.932719
12.0571    0.9363
12.0878    0.93995
12.1184    0.943665
12.1491    0.947442
12.1798    0.951275
12.2105    0.955159
12.2412    0.959087
12.2718    0.96305
12.3025    0.967044
12.3332    0.971059
12.3639    0.975088
12.3946    0.979124
12.4252    0.983162
12.4559    0.987195
12.4866    0.991218
12.5173    0.995229
12.548     0.999223
12.5786    1.0032
12.6093    1.00715
12.64      1.01109
12.6707    1.015
12.7014    1.01888
12.732     1.02275
12.7627    1.02658
12.7934    1.03039
12.8241    1.03417
12.8548    1.03791
12.8854    1.04162
12.9161    1.0453
12.9468    1.04893
12.9775    1.05252
13.0082    1.05607
13.0388    1.05956
13.0695    1.06299
13.1002    1.06636
13.1309    1.06967
13.1616    1.0729
13.1922    1.07605
13.2229    1.07912
13.2536    1.0821
13.2843    1.08498
13.315     1.08776
13.3456    1.09043
13.3763    1.09299
13.407     1.09545
13.4377    1.09778
13.4684    1.1
13.499     1.10211
13.5297    1.10409
13.5604    1.10596
13.5911    1.10771
13.6217    1.10934
13.6524    1.11085
13.6831    1.11224
13.7138    1.11351
13.7445    1.11466
13.7751    1.11567
13.8058    1.11656
13.8365    1.11732
13.8672    1.11796
13.8979    1.11846
13.9285    1.11883
13.9592    1.11907
13.9899    1.11918
14.0206    1.11917
14.0513    1.11904
14.0819    1.11879
14.1126    1.11842
14.1433    1.11794
14.174     1.11735
14.2047    1.11665
14.2353    1.11585
14.266     1.11494
14.2967    1.11393
14.3274    1.11281
14.3581    1.1116
14.3887    1.11028
14.4194    1.10886
14.4501    1.10733
14.4808    1.10571
14.5115    1.10399
14.5421    1.10217
14.5728    1.10025
14.6035    1.09824
14.6342    1.09613
14.6649    1.09393
14.6955    1.09165
14.7262    1.08927
14.7569    1.08682
14.7876    1.08428
14.8183    1.08166
14.8489    1.07896
14.8796    1.07619
14.9103    1.07336
14.941     1.07046
14.9717    1.0675
15.0023    1.06449
15.033     1.06144
15.0637    1.05836
15.0944    1.05524
15.1251    1.05211
15.1557    1.04896
15.1864    1.0458
15.2171    1.04263
15.2478    1.03947
15.2784    1.0363
15.3091    1.03314
15.3398    1.02998
15.3705    1.02683
15.4012    1.02369
15.4318    1.02054
15.4625    1.0174
15.4932    1.01427
15.5239    1.01114
15.5546    1.00803
15.5852    1.00493
15.6159    1.00184
15.6466    0.998778
15.6773    0.995741
15.708     0.992735
15.7386    0.989766
15.7693    0.986836
15.8       0.983948
15.8307    0.981105
15.8614    0.978308
15.892     0.975555
15.9227    0.972846
15.9534    0.970179
15.9841    0.967552
16.0148    0.964962
16.0454    0.962407
16.0761    0.959886
16.1068    0.957397
16.1375    0.95494
16.1682    0.952518
16.1988    0.950131
16.2295    0.947783
16.2602    0.945478
16.2909    0.943221
16.3216    0.941017
16.3522    0.938872
16.3829    0.936791
16.4136    0.934779
16.4443    0.93284
16.475     0.930979
16.5056    0.929199
16.5363    0.927503
16.567     0.925891
16.5977    0.924366
16.6284    0.922927
16.659     0.921576
16.6897    0.92031
16.7204    0.91913
16.7511    0.918035
16.7817    0.917024
16.8124    0.916096
16.8431    0.915251
16.8738    0.914486
16.9045    0.913802
16.9351    0.913199
16.9658    0.912675
16.9965    0.912227
17.0272    0.911858
17.0579    0.911565
17.0885    0.911345
17.1192    0.911201
17.1499    0.911128
17.1806    0.911126
17.2113    0.911196
17.2419    0.911336
17.2726    0.911546
17.3033    0.911826
17.334     0.912175
17.3647    0.912597
17.3953    0.91309
17.426     0.913656
17.4567    0.914296
17.4874    0.91501
17.5181    0.915799
17.5487    0.916663
17.5794    0.917601
17.6101    0.918613
17.6408    0.919698
17.6715    0.920852
17.7021    0.922075
17.7328    0.923364
17.7635    0.924716
17.7942    0.92613
17.8249    0.927604
17.8555    0.929136
17.8862    0.930725
17.9169    0.932369
17.9476    0.934068
17.9783    0.935822
18.0089    0.937629
18.0396    0.939488
18.0703    0.941398
18.101     0.943357
18.1317    0.945365
18.1623    0.947417
18.193     0.949511
18.2237    0.951644
18.2544    0.953812
18.2851    0.956014
18.3157    0.958246
18.3464    0.960506
18.3771    0.962792
18.4078    0.965104
18.4384    0.967439
18.4691    0.969799
18.4998    0.972182
18.5305    0.97459
18.5612    0.97702
18.5918    0.979473
18.6225    0.981948
18.6532    0.984442
18.6839    0.986953
18.7146    0.989479
18.7452    0.992016
18.7759    0.994559
18.8066    0.997104
18.8373    0.999649
18.868     1.00219
18.8986    1.00472
18.9293    1.00724
18.96      1.00974
18.9907    1.01223
19.0214    1.0147
19.052     1.01716
19.0827    1.01959
19.1134    1.022
19.1441    1.02439
19.1748    1.02676
19.2054    1.0291
19.2361    1.0314
19.2668    1.03368
19.2975    1.03592
19.3282    1.03812
19.3588    1.04028
19.3895    1.04239
19.4202    1.04445
19.4509    1.04646
19.4816    1.04842
19.5122    1.05033
19.5429    1.05218
19.5736    1.05398
19.6043    1.05572
19.635     1.05741
19.6656    1.05905
19.6963    1.06062
19.727     1.06214
19.7577    1.06359
19.7884    1.06498
19.819     1.06631
19.8497    1.06756
19.8804    1.06873
19.9111    1.06983
19.9417    1.07085
19.9724    1.07178
20.0031    1.07263
20.0338    1.07339
20.0645    1.07406
20.0951    1.07464
20.1258    1.07514
20.1565    1.07556
20.1872    1.07589
20.2179    1.07615
20.2485    1.07634
20.2792    1.07645
20.3099    1.07649
20.3406    1.07645
20.3713    1.07635
20.4019    1.07618
20.4326    1.07595
20.4633    1.07564
20.494     1.07525
20.5247    1.0748
20.5553    1.07427
20.586     1.07366
20.6167    1.07298
20.6474    1.07222
20.6781    1.07139
20.7087    1.07048
20.7394    1.0695
20.7701    1.06845
20.8008    1.06733
20.8315    1.06615
20.8621    1.06492
20.8928    1.06363
20.9235    1.06229
20.9542    1.06091
20.9849    1.05949
21.0155    1.05802
21.0462    1.05652
21.0769    1.05498
21.1076    1.0534
21.1383    1.05178
21.1689    1.05013
21.1996    1.04844
21.2303    1.04671
21.261     1.04494
21.2917    1.04312
21.3223    1.04127
21.353     1.03938
21.3837    1.03745
21.4144    1.03549
21.4451    1.03349
21.4757    1.03147
21.5064    1.02941
21.5371    1.02734
21.5678    1.02525
21.5984    1.02315
21.6291    1.02103
21.6598    1.01891
21.6905    1.01679
21.7212    1.01467
21.7518    1.01255
21.7825    1.01044
21.8132    1.00833
21.8439    1.00624
21.8746    1.00415
21.9052    1.00208
21.9359    1.00003
21.9666    0.997991
21.9973    0.995969
22.028     0.993965
22.0586    0.991979
22.0893    0.990012
22.12      0.988063
22.1507    0.986132
22.1814    0.98422
22.212     0.982327
22.2427    0.980453
22.2734    0.9786
22.3041    0.976769
22.3348    0.974962
22.3654    0.97318
22.3961    0.971426
22.4268    0.969703
22.4575    0.968014
22.4882    0.966361
22.5188    0.964748
22.5495    0.963177
22.5802    0.96165
22.6109    0.960169
22.6416    0.958735
22.6722    0.957348
22.7029    0.95601
22.7336    0.954721
22.7643    0.95348
22.795     0.952287
22.8256    0.951141
22.8563    0.950044
22.887     0.948994
22.9177    0.947993
22.9484    0.947042
22.979     0.94614
23.0097    0.94529
23.0404    0.944493
23.0711    0.943751
23.1017    0.943066
23.1324    0.942438
23.1631    0.94187
23.1938    0.94136
23.2245    0.940911
23.2551    0.940522
23.2858    0.940192
23.3165    0.93992
23.3472    0.939704
23.3779    0.939544
23.4085    0.939437
23.4392    0.93938
23.4699    0.939372
23.5006    0.939412
23.5313    0.939497
23.5619    0.939626
23.5926    0.939799
23.6233    0.940014
23.654     0.940271
23.6847    0.940571
23.7153    0.940913
23.746     0.941297
23.7767    0.941726
23.8074    0.942199
23.8381    0.942717
23.8687    0.943281
23.8994    0.943892
23.9301    0.94455
23.9608    0.945256
23.9915    0.946011
24.0221    0.946816
24.0528    0.94767
24.0835    0.948576
24.1142    0.949532
24.1449    0.95054
24.1755    0.951598
24.2062    0.952708
24.2369    0.953868
24.2676    0.955077
24.2983    0.956333
24.3289    0.957636
24.3596    0.958982
24.3903    0.96037
24.421     0.961795
24.4517    0.963256
24.4823    0.964749
24.513     0.966271
24.5437    0.967819
24.5744    0.96939
24.6051    0.970982
24.6357    0.972593
24.6664    0.974222
24.6971    0.975868
24.7278    0.977531
24.7584    0.97921
24.7891    0.980906
24.8198    0.982618
24.8505    0.984347
24.8812    0.986093
24.9118    0.987854
24.9425    0.98963
24.9732    0.991419
25.0039    0.993219
25.0346    0.995028
25.0652    0.996843
25.0959    0.998661
25.1266    1.00048
25.1573    1.00229
25.188     1.0041
25.2186    1.0059
25.2493    1.00768
25.28      1.00946
25.3107    1.01122
25.3414    1.01296
25.372     1.01468
25.4027    1.01638
25.4334    1.01806
25.4641    1.01972
25.4948    1.02135
25.5254    1.02296
25.5561    1.02454
25.5868    1.02609
25.6175    1.02761
25.6482    1.0291
25.6788    1.03055
25.7095    1.03196
25.7402    1.03334
25.7709    1.03469
25.8016    1.03599
25.8322    1.03726
25.8629    1.03849
25.8936    1.03968
25.9243    1.04083
25.955     1.04194
25.9856    1.043
26.0163    1.04401
26.047     1.04498
26.0777    1.04589
26.1084    1.04675
26.139     1.04755
26.1697    1.0483
26.2004    1.049
26.2311    1.04963
26.2618    1.05022
26.2924    1.05074
26.3231    1.05122
26.3538    1.05165
26.3845    1.05204
26.4151    1.05237
26.4458    1.05267
26.4765    1.05292
26.5072    1.05312
26.5379    1.05328
26.5685    1.0534
26.5992    1.05346
26.6299    1.05348
26.6606    1.05344
26.6913    1.05334
26.7219    1.05318
26.7526    1.05297
26.7833    1.05269
26.814     1.05236
26.8447    1.05197
26.8753    1.05152
26.906     1.05101
26.9367    1.05046
26.9674    1.04986
26.9981    1.04921
27.0287    1.04852
27.0594    1.0478
27.0901    1.04704
27.1208    1.04624
27.1515    1.04542
27.1821    1.04456
27.2128    1.04367
27.2435    1.04276
27.2742    1.04181
27.3049    1.04083
27.3355    1.03981
27.3662    1.03877
27.3969    1.03769
27.4276    1.03657
27.4583    1.03542
27.4889    1.03424
27.5196    1.03302
27.5503    1.03176
27.581     1.03048
27.6117    1.02916
27.6423    1.02781
27.673     1.02644
27.7037    1.02504
27.7344    1.02362
27.7651    1.02218
27.7957    1.02072
27.8264    1.01924
27.8571    1.01775
27.8878    1.01625
27.9184    1.01473
27.9491    1.0132
27.9798    1.01167
28.0105    1.01013
28.0412    1.00859
28.0718    1.00705
28.1025    1.00551
28.1332    1.00398
28.1639    1.00245
28.1946    1.00093
28.2252    0.999428
28.2559    0.997934
28.2866    0.996454
28.3173    0.99499
28.348     0.993542
28.3786    0.992112
28.4093    0.990699
28.44      0.989304
28.4707    0.987927
28.5014    0.98657
28.532     0.985233
28.5627    0.983917
28.5934    0.982624
28.6241    0.981354
28.6548    0.980109
28.6854    0.978892
28.7161    0.977702
28.7468    0.976542
28.7775    0.975411
28.8082    0.974312
28.8388    0.973244
28.8695    0.972206
28.9002    0.971199
28.9309    0.970222
28.9616    0.969274
28.9922    0.968354
29.0229    0.96746
29.0536    0.966595
29.0843    0.965755
29.115     0.964942
29.1456    0.964156
29.1763    0.963398
29.207     0.96267
29.2377    0.961972
29.2684    0.961307
29.299     0.960676
29.3297    0.960081
29.3604    0.959524
29.3911    0.959007
29.4218    0.958532
29.4524    0.958098
29.4831    0.957708
29.5138    0.957361
29.5445    0.957057
29.5751    0.956798
29.6058    0.956581
29.6365    0.956409
29.6672    0.956279
29.6979    0.956192
29.7285    0.956147
29.7592    0.956144
29.7899    0.956183
29.8206    0.956263
29.8513    0.956384
29.8819    0.956545
29.9126    0.956747
29.9433    0.956987
29.974     0.957266
30.0047    0.957581
30.0353    0.957933
30.066     0.958319
30.0967    0.958738
30.1274    0.95919
30.1581    0.959673
30.1887    0.960186
30.2194    0.960728
30.2501    0.9613
30.2808    0.961901
30.3115    0.962532
30.3421    0.963193
30.3728    0.963883
30.4035    0.964605
30.4342    0.965356
30.4649    0.966139
30.4955    0.966952
30.5262    0.967794
