# Description:
#    Intra-molecular correlation functions (form factors) for a single ungrafted 
#    matrix chain in a vacuum. These data were calculated from MD simulations 
#    using the Debye method.
# 
# Source:
#   Coarse Grained MD Simulation
# 
# Chain Length: 10
# Interactions: WCA
# dr: 0.1 d
# dk: 0.031 d^-1
# length: 1024
# Omega Pair: Matrix-Matrix
# 
# k                      Matrix-Matrix Omega(k)
# 
3.067961575771282340e-02 9.990712485672519350e+00
6.135923151542564680e-02 9.962817452518228478e+00
9.203884727313846326e-02 9.916594900998097373e+00
1.227184630308512936e-01 9.852343764810871818e+00
1.533980787885641239e-01 9.770502246190652329e+00
1.840776945462769543e-01 9.671670983988104098e+00
2.147573103039897569e-01 9.556523678502493624e+00
2.454369260617025872e-01 9.425867814882433748e+00
2.761165418194154175e-01 9.280569669936079791e+00
3.067961575771282479e-01 9.121624118829007699e+00
3.374757733348410782e-01 8.950063767511124979e+00
3.681553890925539085e-01 8.766985047245764662e+00
3.988350048502666834e-01 8.573587467977645815e+00
4.295146206079795137e-01 8.371035004815865932e+00
4.601942363656923440e-01 8.160538326853705726e+00
4.908738521234051744e-01 7.943368546764334681e+00
5.215534678811180047e-01 7.720699039464020252e+00
5.522330836388308350e-01 7.493786872974570024e+00
5.829126993965436654e-01 7.263787253570614055e+00
6.135923151542564957e-01 7.031885109558046132e+00
6.442719309119693261e-01 6.799180524032037098e+00
6.749515466696821564e-01 6.566735934664244212e+00
7.056311624273949867e-01 6.335531287538791467e+00
7.363107781851078171e-01 6.106519155767195173e+00
7.669903939428205364e-01 5.880527147220948159e+00
7.976700097005333667e-01 5.658357431179331876e+00
8.283496254582461971e-01 5.440700157195506037e+00
8.590292412159590274e-01 5.228170873679234276e+00
8.897088569736718577e-01 5.021323464308864892e+00
9.203884727313846881e-01 4.820589507485526504e+00
9.510680884890975184e-01 4.626379459446407161e+00
9.817477042468103487e-01 4.438966806668318554e+00
1.012427320004523068e+00 4.258603255520634789e+00
1.043106935762235787e+00 4.085412298011700472e+00
1.073786551519948729e+00 3.919508647981842397e+00
1.104466167277661448e+00 3.760904813850277417e+00
1.135145783035374389e+00 3.609595797552722196e+00
1.165825398793087109e+00 3.465499110900036595e+00
1.196505014550800050e+00 3.328461242505192708e+00
1.227184630308512769e+00 3.198406390853474335e+00
1.257864246066225711e+00 3.075106339552216017e+00
1.288543861823938430e+00 2.958341095608644444e+00
1.319223477581651371e+00 2.847880663980572269e+00
1.349903093339364091e+00 2.743462555034936301e+00
1.380582709097077032e+00 2.644829276239128557e+00
1.411262324854789751e+00 2.551698338965183943e+00
1.441941940612502693e+00 2.463797253135361576e+00
1.472621556370215412e+00 2.380848528668764175e+00
1.503301172127928131e+00 2.302564677227119549e+00
1.533980787885641073e+00 2.228680708702959645e+00
1.564660403643353792e+00 2.158929133245627074e+00
1.595340019401066733e+00 2.093049960635058326e+00
1.626019635158779453e+00 2.030800740266166304e+00
1.656699250916492394e+00 1.971946437004883812e+00
1.687378866674205113e+00 1.916257057200571268e+00
1.718058482431918055e+00 1.863515108876615534e+00
1.748738098189630774e+00 1.813538098035454071e+00
1.779417713947343715e+00 1.766118533396902057e+00
1.810097329705056435e+00 1.721093918840607362e+00
1.840776945462769376e+00 1.678291761467725518e+00
1.871456561220482095e+00 1.637562065237606390e+00
1.902136176978195037e+00 1.598759835163089393e+00
1.932815792735907756e+00 1.561767572921021197e+00
1.963495408493620697e+00 1.526445286293483861e+00
1.994175024251333417e+00 1.492682210861882464e+00
2.024854640009046136e+00 1.460385322181231960e+00
2.055534255766759077e+00 1.429455887109374101e+00
2.086213871524472019e+00 1.399806408618432974e+00
2.116893487282184960e+00 1.371346892931599726e+00
2.147573103039897902e+00 1.344012340973959718e+00
2.178252718797610399e+00 1.317722758188313081e+00
2.208932334555323340e+00 1.292425645596048778e+00
2.239611950313036282e+00 1.268056006592926721e+00
2.270291566070749223e+00 1.244563843057577168e+00
2.300971181828461720e+00 1.221899157157537719e+00
2.331650797586174662e+00 1.200019450424649969e+00
2.362330413343887603e+00 1.178879724751772606e+00
2.393010029101600544e+00 1.158449981261338690e+00
2.423689644859313042e+00 1.138695228676801730e+00
2.454369260617025983e+00 1.119580460668368582e+00
2.485048876374738924e+00 1.101088177269887058e+00
2.515728492132451422e+00 1.083183379998971851e+00
2.546408107890164363e+00 1.065853568783033056e+00
2.577087723647877304e+00 1.049073745019185600e+00
2.607767339405590246e+00 1.032826408996338818e+00
2.638446955163302743e+00 1.017096561123900011e+00
2.669126570921015684e+00 1.001866702244880392e+00
2.699806186678728626e+00 9.871270820535269497e-01
2.730485802436441567e+00 9.728647013608295868e-01
2.761165418194154064e+00 9.590670605805610149e-01
2.791845033951867006e+00 9.457231599395792276e-01
2.822524649709579947e+00 9.328191108281504995e-01
2.853204265467292888e+00 9.203540759292154760e-01
2.883883881225005386e+00 9.083132792649410980e-01
2.914563496982718327e+00 8.966877211449851837e-01
2.945243112740431268e+00 8.854681519422588076e-01
2.975922728498143766e+00 8.746455720393822020e-01
3.006602344255856707e+00 8.642114816411072820e-01
3.037281960013569648e+00 8.541558812509313370e-01
3.067961575771282590e+00 8.444707710795525957e-01
3.098641191528995087e+00 8.351464015612691805e-01
3.129320807286708028e+00 8.261747729637698434e-01
3.160000423044420970e+00 8.175466356449431204e-01
3.190680038802133911e+00 8.092534899241556889e-01
3.221359654559846408e+00 8.012868397012823385e-01
3.252039270317559350e+00 7.936379319211535055e-01
3.282718886075272291e+00 7.863000164269768888e-01
3.313398501832985232e+00 7.792638435944477804e-01
3.344078117590697730e+00 7.725224136330609559e-01
3.374757733348410671e+00 7.660679768612348450e-01
3.405437349106123612e+00 7.598950333757463760e-01
3.436116964863836554e+00 7.539943337542280855e-01
3.466796580621549051e+00 7.483623777033714397e-01
3.497476196379261992e+00 7.429904160055608164e-01
3.528155812136974934e+00 7.378741983752999944e-01
3.558835427894687431e+00 7.330069753448364978e-01
3.589515043652400372e+00 7.283840292903480673e-01
3.620194659410113314e+00 7.240001198481939015e-01
3.650874275167826255e+00 7.198509536898479722e-01
3.681553890925538752e+00 7.159305312309803826e-01
3.712233506683251694e+00 7.122343526406672565e-01
3.742913122440964635e+00 7.087579179353241665e-01
3.773592738198677576e+00 7.054952275411989771e-01
3.804272353956390074e+00 7.024425315991895680e-01
3.834951969714103015e+00 6.995960800896880993e-01
3.865631585471815956e+00 6.969496233896366189e-01
3.896311201229528898e+00 6.944996615913860971e-01
3.926990816987241395e+00 6.922416948506983081e-01
3.957670432744954336e+00 6.901707233765937977e-01
3.988350048502667278e+00 6.882832472986006866e-01
4.019029664260379775e+00 6.865745186993178484e-01
4.049709280018092272e+00 6.850415359756280020e-01
4.080388895775804770e+00 6.836785490566354984e-01
4.111068511533518155e+00 6.824843079400616519e-01
4.141748127291230652e+00 6.814543128712526876e-01
4.172427743048944038e+00 6.805858138905472865e-01
4.203107358806656535e+00 6.798770610151818605e-01
4.233786974564369032e+00 6.793268042616021907e-01
4.264466590322082418e+00 6.789317938990474532e-01
4.295146206079794915e+00 6.786925295858999840e-01
4.325825821837507412e+00 6.786085114395582485e-01
4.356505437595220798e+00 6.786789895159864860e-01
4.387185053352933295e+00 6.789057134402796123e-01
4.417864669110646680e+00 6.792895825997329329e-01
4.448544284868359178e+00 6.798323484975036246e-01
4.479223900626071675e+00 6.805376104520501901e-01
4.509903516383785060e+00 6.814063687696446658e-01
4.540583132141497558e+00 6.824426232999966091e-01
4.571262747899210055e+00 6.836503737360742905e-01
4.601942363656923440e+00 6.850318702629875078e-01
4.632621979414635938e+00 6.865928625033987931e-01
4.663301595172348435e+00 6.883366004001894023e-01
4.693981210930061820e+00 6.902675837152106864e-01
4.724660826687774318e+00 6.923885624259745741e-01
4.755340442445487703e+00 6.947052862479378144e-01
4.786020058203200200e+00 6.972187551520645510e-01
4.816699673960912698e+00 6.999344711394833718e-01
4.847379289718626083e+00 7.028534324214037454e-01
4.878058905476338580e+00 7.059778885319694108e-01
4.908738521234051078e+00 7.093093394227915072e-01
4.939418136991764463e+00 7.128482850982351682e-01
4.970097752749476960e+00 7.165949755578260305e-01
5.000777368507189458e+00 7.205486608779434476e-01
5.031456984264902843e+00 7.247078411604888082e-01
5.062136600022615340e+00 7.290690166834625785e-01
5.092816215780328726e+00 7.336299374241878057e-01
5.123495831538041223e+00 7.383866037049731101e-01
5.154175447295753720e+00 7.433342657874042470e-01
5.184855063053467106e+00 7.484693768340558995e-01
5.215534678811179603e+00 7.537825867492580212e-01
5.246214294568892100e+00 7.592692913737036919e-01
5.276893910326605486e+00 7.649227409291440294e-01
5.307573526084317983e+00 7.707359356498539871e-01
5.338253141842031368e+00 7.767016257314299787e-01
5.368932757599743866e+00 7.828118115418644107e-01
5.399612373357456363e+00 7.890592433728982336e-01
5.430291989115169748e+00 7.954369214713310487e-01
5.460971604872882246e+00 8.019375960441765816e-01
5.491651220630594743e+00 8.085527675500518985e-01
5.522330836388308128e+00 8.152774361222970834e-01
5.553010452146020626e+00 8.221046020349731531e-01
5.583690067903733123e+00 8.290280155234618364e-01
5.614369683661446508e+00 8.360416776818927476e-01
5.645049299419159006e+00 8.431410878822137578e-01
5.675728915176872391e+00 8.503212461114321163e-01
5.706408530934584888e+00 8.575776525334685152e-01
5.737088146692297386e+00 8.649060573022979703e-01
5.767767762450010771e+00 8.723034604864393637e-01
5.798447378207723268e+00 8.797658622840657250e-01
5.829126993965435766e+00 8.872912626495074173e-01
5.859806609723149151e+00 8.948756618789185380e-01
5.890486225480861648e+00 9.025170598765321905e-01
5.921165841238574146e+00 9.102122068869340499e-01
5.951845456996287531e+00 9.179588528841587936e-01
5.982525072754000028e+00 9.257567963383164233e-01
6.013204688511713414e+00 9.335969547931622925e-01
6.043884304269425911e+00 9.414806114218512434e-01
6.074563920027138408e+00 9.494025167091247885e-01
6.105243535784851794e+00 9.573596706812658175e-01
6.135923151542564291e+00 9.653483232480443155e-01
6.166602767300276788e+00 9.733624748378431057e-01
6.197282383057990174e+00 9.813983754362103351e-01
6.227961998815702671e+00 9.894502750963121152e-01
6.258641614573416057e+00 9.975099246280720866e-01
6.289321230331128554e+00 1.005578573092253070e+00
6.320000846088841051e+00 1.013635222001798342e+00
6.350680461846554437e+00 1.021685120843325301e+00
6.381360077604266934e+00 1.029712520242116902e+00
6.412039693361979431e+00 1.037714920017250186e+00
6.442719309119692817e+00 1.045679820636843393e+00
6.473398924877405314e+00 1.053597222546181822e+00
6.504078540635117811e+00 1.061459626002073220e+00
6.534758156392831197e+00 1.069254531586770529e+00
6.565437772150543694e+00 1.076974439406851447e+00
6.596117387908257079e+00 1.084606850169810288e+00
6.626797003665969577e+00 1.092136764589463738e+00
6.657476619423682074e+00 1.099559182127519019e+00
6.688156235181395459e+00 1.106861603892181689e+00
6.718835850939107956e+00 1.114029030691201294e+00
6.749515466696820454e+00 1.121051462349361705e+00
6.780195082454533839e+00 1.127913609509101578e+00
6.810874698212246336e+00 1.134610997298150403e+00
6.841554313969959722e+00 1.141123388315033349e+00
6.872233929727672219e+00 1.147440783255694763e+00
6.902913545485384716e+00 1.153555681535203714e+00
6.933593161243098102e+00 1.159453084232345832e+00
6.964272777000810599e+00 1.165122991722845391e+00
6.994952392758523096e+00 1.170555403602521416e+00
7.025632008516236482e+00 1.175730322095824398e+00
7.056311624273948979e+00 1.180650246049973262e+00
7.086991240031661476e+00 1.185297676627717234e+00
7.117670855789374862e+00 1.189667613807713575e+00
7.148350471547087359e+00 1.193747558251742502e+00
7.179030087304800745e+00 1.197537509917119714e+00
7.209709703062513242e+00 1.201022466270301958e+00
7.240389318820225739e+00 1.204202429395316853e+00
7.271068934577939125e+00 1.207069900420542519e+00
7.301748550335651622e+00 1.209624879273389464e+00
7.332428166093364119e+00 1.211862366252734802e+00
7.363107781851077505e+00 1.213782361184943648e+00
7.393787397608790002e+00 1.215382364282075134e+00
7.424467013366502499e+00 1.216669874664581874e+00
7.455146629124215885e+00 1.217639893424070863e+00
7.485826244881928382e+00 1.218302418912460272e+00
7.516505860639641767e+00 1.218657452103229177e+00
7.547185476397354265e+00 1.218714991521931079e+00
7.577865092155066762e+00 1.218482537192762116e+00
7.608544707912780147e+00 1.217962378005519541e+00
7.639224323670492645e+00 1.217167350616338961e+00
7.669903939428205142e+00 1.216107330185991042e+00
7.700583555185918527e+00 1.214784818358737750e+00
7.731263170943631025e+00 1.213217313701894007e+00
7.761942786701344410e+00 1.211414816066811673e+00
7.792622402459056907e+00 1.209389824004995839e+00
7.823302018216769405e+00 1.207142339161016764e+00
7.853981633974482790e+00 1.204697359397241430e+00
7.884661249732195287e+00 1.202057385027082148e+00
7.915340865489907785e+00 1.199234915510356103e+00
7.946020481247621170e+00 1.196239950432122390e+00
7.976700097005333667e+00 1.193079989526395934e+00
8.007379712763047053e+00 1.189767531012790425e+00
8.038059328520759550e+00 1.186315075563301180e+00
8.068738944278472047e+00 1.182720123706613169e+00
8.099418560036184545e+00 1.179000174597959472e+00
8.130098175793897042e+00 1.175157728471706520e+00
8.160777791551611315e+00 1.171202784694047594e+00
8.191457407309323813e+00 1.167137843523063712e+00
8.222137023067036310e+00 1.162972904137085761e+00
8.252816638824748807e+00 1.158707967255946603e+00
8.283496254582461304e+00 1.154353031658845730e+00
8.314175870340175578e+00 1.149910597979588500e+00
8.344855486097888075e+00 1.145385665756423199e+00
8.375535101855600573e+00 1.140780735200618068e+00
8.406214717613313070e+00 1.136104269984706372e+00
8.436894333371025567e+00 1.131356820615559533e+00
8.467573949128738064e+00 1.126546873133736915e+00
8.498253564886452338e+00 1.121676926864327628e+00
8.528933180644164835e+00 1.116744483715517156e+00
8.559612796401877333e+00 1.111764541756504521e+00
8.590292412159589830e+00 1.106737101773522580e+00
8.620972027917302327e+00 1.101672162399360388e+00
8.651651643675016601e+00 1.096564725027313392e+00
8.682331259432729098e+00 1.091432288178849852e+00
8.713010875190441595e+00 1.086272352375797556e+00
8.743690490948154093e+00 1.081097416948470835e+00
8.774370106705866590e+00 1.075907481931649867e+00
8.805049722463580864e+00 1.070712546994840197e+00
8.835729338221293361e+00 1.065515112111956597e+00
8.866408953979005858e+00 1.060330176780275524e+00
8.897088569736718355e+00 1.055157741135489768e+00
8.927768185494430853e+00 1.050000305029741510e+00
8.958447801252143350e+00 1.044870367652428245e+00
8.989127417009857623e+00 1.039780428533892520e+00
9.019807032767570121e+00 1.034725488896999002e+00
9.050486648525282618e+00 1.029713047564113859e+00
9.081166264282995115e+00 1.024750604253443109e+00
9.111845880040707613e+00 1.019848158347471667e+00
9.142525495798421886e+00 1.015003211305627540e+00
9.173205111556134383e+00 1.010223261628476976e+00
9.203884727313846881e+00 1.005514285240315830e+00
9.234564343071559378e+00 1.000875604378630657e+00
9.265243958829271875e+00 9.963149220470565171e-01
9.295923574586984373e+00 9.918359877842886085e-01
9.326603190344698646e+00 9.874398015527536820e-01
9.357282806102411143e+00 9.831273634749416734e-01
9.387962421860123641e+00 9.789014233488527728e-01
9.418642037617836138e+00 9.747634811181287162e-01
9.449321653375548635e+00 9.707150366590465707e-01
9.480001269133262909e+00 9.667563400346047553e-01
9.510680884890975406e+00 9.628893910903415509e-01
9.541360500648687903e+00 9.591134398748338841e-01
9.572040116406400401e+00 9.554289863683476103e-01
9.602719732164112898e+00 9.518362813646473741e-01
9.633399347921825395e+00 9.483355744055629311e-01
9.664078963679539669e+00 9.449263651589157043e-01
9.694758579437252166e+00 9.416089036087653685e-01
9.725438195194964663e+00 9.383826897898387420e-01
9.756117810952677161e+00 9.352479736674084165e-01
9.786797426710389658e+00 9.322042552949886263e-01
9.817477042468103932e+00 9.292520345949654148e-01
9.848156658225816429e+00 9.263910616302456491e-01
9.878836273983528926e+00 9.236220862887747352e-01
9.909515889741241423e+00 9.209446087098379641e-01
9.940195505498953921e+00 9.183601286192293323e-01
9.970875121256666418e+00 9.158676003653274389e-01
1.000155473701438069e+01 9.134735320741788067e-01
1.003223435277209319e+01 9.111642787264767618e-01
1.006291396852980569e+01 9.089572894929505154e-01
1.009359358428751818e+01 9.068476911586009770e-01
1.012427320004523068e+01 9.048350081468699013e-01
1.015495281580294495e+01 9.029204444014822251e-01
1.018563243156065745e+01 9.010994380053936048e-01
1.021631204731836995e+01 8.993853666328388563e-01
1.024699166307608245e+01 8.977724382995180274e-01
1.027767127883379494e+01 8.962621638391669032e-01
1.030835089459150922e+01 8.948545029305492449e-01
1.033903051034922171e+01 8.935465569161485933e-01
1.036971012610693421e+01 8.923468885771442816e-01
1.040038974186464671e+01 8.912518661352382132e-01
1.043106935762235921e+01 8.902614891399427410e-01
1.046174897338007170e+01 8.893725021359426552e-01
1.049242858913778598e+01 8.885908683849281786e-01
1.052310820489549847e+01 8.879130961916169573e-01
1.055378782065321097e+01 8.873379783131621901e-01
1.058446743641092347e+01 8.868650019778022697e-01
1.061514705216863597e+01 8.864920835040122071e-01
1.064582666792635024e+01 8.862205992871263760e-01
1.067650628368406274e+01 8.860472344443000026e-01
1.070718589944177523e+01 8.859712849069193430e-01
1.073786551519948773e+01 8.859907280959735676e-01
1.076854513095720023e+01 8.861053035681650814e-01
1.079922474671491273e+01 8.863117396078505905e-01
1.082990436247262700e+01 8.866088050993082836e-01
1.086058397823033950e+01 8.869962976403522603e-01
1.089126359398805199e+01 8.874711864183330023e-01
1.092194320974576449e+01 8.880351609937441326e-01
1.095262282550347699e+01 8.886820446150258679e-01
1.098330244126119126e+01 8.894140648087254242e-01
1.101398205701890376e+01 8.902285236635311128e-01
1.104466167277661626e+01 8.911258788975049416e-01
1.107534128853432875e+01 8.921071742526988091e-01
1.110602090429204125e+01 8.931655255696623330e-01
1.113670052004975375e+01 8.943037706325928093e-01
1.116738013580746802e+01 8.955209619027195700e-01
1.119805975156518052e+01 8.968158012407356772e-01
1.122873936732289302e+01 8.981928590480899866e-01
1.125941898308060551e+01 8.996416932797871580e-01
1.129009859883831801e+01 9.011661803755001143e-01
1.132077821459603229e+01 9.027658640721367700e-01
1.135145783035374478e+01 9.044389502433145545e-01
1.138213744611145728e+01 9.061899668829828114e-01
1.141281706186916978e+01 9.080062987214045922e-01
1.144349667762688227e+01 9.098920457876848999e-01
1.147417629338459477e+01 9.118459901511476451e-01
1.150485590914230905e+01 9.138650981896428993e-01
1.153553552490002154e+01 9.159552324036406290e-01
1.156621514065773404e+01 9.180990872175887052e-01
1.159689475641544654e+01 9.203021234696369124e-01
1.162757437217315903e+01 9.225613627651619852e-01
1.165825398793087331e+01 9.248742811096417604e-01
1.168893360368858581e+01 9.272451409543854828e-01
1.171961321944629830e+01 9.296563082016051638e-01
1.175029283520401080e+01 9.321121764662494424e-01
1.178097245096172330e+01 9.346100070416556438e-01
1.181165206671943579e+01 9.371462873072939903e-01
1.184233168247715007e+01 9.397276906885521086e-01
1.187301129823486256e+01 9.423332211145682979e-01
1.190369091399257506e+01 9.449702190325051099e-01
1.193437052975028756e+01 9.476344407919956581e-01
1.196505014550800006e+01 9.503339359173730294e-01
1.199572976126571433e+01 9.530479035512890995e-01
